%time,time,field.x,field.y,field.z,vx,vy,vz,Speed ,field.linear.x,field.linear.y,field.linear.z,field.angular.x,field.angular.y,field.angular.z,linear_speed
1.63583903831077E+018,0,-1.92140579224,0.00787806883454,0.519373059273,0,0,0,0,8.39E-05,0.0258645463585,-0.00149046863811,-0.000145002342611,-0.000434027943953,-0.00016393056145,0.025907861370085
1.63583903831495E+018,0.004180224,-1.92140579224,0.00787806883454,0.519373059273,0,0,0,0,8.39E-05,0.0258645463585,-0.00149046863811,-0.000145002342611,-0.000434027943953,-0.00016393056145,0.025907861370085
1.6358390383188E+018,0.008029952,-1.92140579224,0.00787806883454,0.519373059273,0,0,0,0,8.39E-05,0.0258645463585,-0.00149046863811,-0.000145002342611,-0.000434027943953,-0.00016393056145,0.025907861370085
1.63583903832283E+018,0.01206016,-1.92140579224,0.00787806883454,0.519373059273,0,0,0,0,8.39E-05,0.0258645463585,-0.00149046863811,-0.000145002342611,-0.000434027943953,-0.00016393056145,0.025907861370085
1.63583903832682E+018,0.016050176,-1.92140579224,0.00787806883454,0.519373059273,0,0,0,0,8.39E-05,0.0258645463585,-0.00149046863811,-0.000145002342611,-0.000434027943953,-0.00016393056145,0.025907861370085
1.63583903833082E+018,0.020050176,-1.92140579224,0.00787806883454,0.519373059273,0,0,0,0,8.39E-05,0.0258645463585,-0.00149046863811,-0.000145002342611,-0.000434027943953,-0.00016393056145,0.025907861370085
1.63583903833509E+018,0.02432,-1.92140579224,0.00787806883454,0.519373059273,0,0,0,0,8.39E-05,0.0258645463585,-0.00149046863811,-0.000145002342611,-0.000434027943953,-0.00016393056145,0.025907861370085
1.63583903833888E+018,0.02811008,-1.92140579224,0.00787806883454,0.519373059273,0,0,0,0,8.39E-05,0.0258645463585,-0.00149046863811,-0.000145002342611,-0.000434027943953,-0.00016393056145,0.025907861370085
1.63583903834277E+018,0.032000256,-1.92140579224,0.00787806883454,0.519373059273,0,0,0,0,8.39E-05,0.0258645463585,-0.00149046863811,-0.000145002342611,-0.000434027943953,-0.00016393056145,0.025907861370085
1.6358390383468E+018,0.036030208,-1.92140579224,0.00787806883454,0.519373059273,0,0,0,0,8.39E-05,0.0258645463585,-0.00149046863811,-0.000145002342611,-0.000434027943953,-0.00016393056145,0.025907861370085
1.63583903835085E+018,0.040079872,-1.92140579224,0.00787806883454,0.519373059273,0.002592636571238,-0.299653185521127,-0.004917068557621,0.299704739569713,8.39E-05,0.0258645463585,-0.00149046863811,-0.000145002342611,-0.000434027943953,-0.00016393056145,0.025907861370085
1.63583903835485E+018,0.044080128,-1.92139542103,0.00667937938124,0.51935338974,0,0,0,0,1.93E-05,0.0270410445445,-0.00139789026498,-0.000135443371516,-0.000325940430164,-0.00131355029819,0.027077491245635
1.63583903835887E+018,0.048100096,-1.92139542103,0.00667937938124,0.51935338974,0,0,0,0,1.93E-05,0.0270410445445,-0.00139789026498,-0.000135443371516,-0.000325940430164,-0.00131355029819,0.027077491245635
1.63583903836283E+018,0.05206016,-1.92139542103,0.00667937938124,0.51935338974,0,0,0,0,1.93E-05,0.0270410445445,-0.00139789026498,-0.000135443371516,-0.000325940430164,-0.00131355029819,0.027077491245635
1.63583903836685E+018,0.056080128,-1.92139542103,0.00667937938124,0.51935338974,0,0,0,0,1.93E-05,0.0270410445445,-0.00139789026498,-0.000135443371516,-0.000325940430164,-0.00131355029819,0.027077491245635
1.63583903837084E+018,0.060070144,-1.92139542103,0.00667937938124,0.51935338974,0,0,0,0,1.93E-05,0.0270410445445,-0.00139789026498,-0.000135443371516,-0.000325940430164,-0.00131355029819,0.027077491245635
1.63583903837488E+018,0.06411008,-1.92139542103,0.00667937938124,0.51935338974,0,0,0,0,1.93E-05,0.0270410445445,-0.00139789026498,-0.000135443371516,-0.000325940430164,-0.00131355029819,0.027077491245635
1.63583903837884E+018,0.068069888,-1.92139542103,0.00667937938124,0.51935338974,0,0,0,0,1.93E-05,0.0270410445445,-0.00139789026498,-0.000135443371516,-0.000325940430164,-0.00131355029819,0.027077491245635
1.63583903838287E+018,0.072100096,-1.92139542103,0.00667937938124,0.51935338974,0,0,0,0,1.93E-05,0.0270410445445,-0.00139789026498,-0.000135443371516,-0.000325940430164,-0.00131355029819,0.027077491245635
1.63583903838681E+018,0.076040192,-1.92139542103,0.00667937938124,0.51935338974,0,0,0,0,1.93E-05,0.0270410445445,-0.00139789026498,-0.000135443371516,-0.000325940430164,-0.00131355029819,0.027077491245635
1.63583903839077E+018,0.08,-1.92139542103,0.00667937938124,0.51935338974,0,0,0,0,1.93E-05,0.0270410445445,-0.00139789026498,-0.000135443371516,-0.000325940430164,-0.00131355029819,0.027077491245635
1.63583903839486E+018,0.084090112,-1.92139542103,0.00667937938124,0.51935338974,0,0,0,0,1.93E-05,0.0270410445445,-0.00139789026498,-0.000135443371516,-0.000325940430164,-0.00131355029819,0.027077491245635
1.63583903839911E+018,0.088339968,-1.92139542103,0.00667937938124,0.51935338974,0.003396649957829,-0.327612233333656,-0.005078950763832,0.327669205757366,1.93E-05,0.0270410445445,-0.00139789026498,-0.000135443371516,-0.000325940430164,-0.00131355029819,0.027077491245635
1.63583903840283E+018,0.09206016,-1.92138278484,0.00546059897169,0.519334495068,0,0,0,0,4.42E-05,0.0253388032068,-0.00146237378598,-0.000142624832124,-0.000424720295129,-7.16E-05,0.025381367711091
1.63583903840685E+018,0.096080128,-1.92138278484,0.00546059897169,0.519334495068,0,0,0,0,4.42E-05,0.0253388032068,-0.00146237378598,-0.000142624832124,-0.000424720295129,-7.16E-05,0.025381367711091
1.63583903841078E+018,0.10001024,-1.92138278484,0.00546059897169,0.519334495068,0,0,0,0,4.42E-05,0.0253388032068,-0.00146237378598,-0.000142624832124,-0.000424720295129,-7.16E-05,0.025381367711091
1.63583903841485E+018,0.104080128,-1.92138278484,0.00546059897169,0.519334495068,0,0,0,0,4.42E-05,0.0253388032068,-0.00146237378598,-0.000142624832124,-0.000424720295129,-7.16E-05,0.025381367711091
1.63583903841878E+018,0.108009984,-1.92138278484,0.00546059897169,0.519334495068,0,0,0,0,4.42E-05,0.0253388032068,-0.00146237378598,-0.000142624832124,-0.000424720295129,-7.16E-05,0.025381367711091
1.63583903842294E+018,0.112169984,-1.92138278484,0.00546059897169,0.519334495068,0,0,0,0,4.42E-05,0.0253388032068,-0.00146237378598,-0.000142624832124,-0.000424720295129,-7.16E-05,0.025381367711091
1.63583903842682E+018,0.116050176,-1.92138278484,0.00546059897169,0.519334495068,0,0,0,0,4.42E-05,0.0253388032068,-0.00146237378598,-0.000142624832124,-0.000424720295129,-7.16E-05,0.025381367711091
1.6358390384308E+018,0.120030208,-1.92138278484,0.00546059897169,0.519334495068,0,0,0,0,4.42E-05,0.0253388032068,-0.00146237378598,-0.000142624832124,-0.000424720295129,-7.16E-05,0.025381367711091
1.63583903843522E+018,0.124450304,-1.92138278484,0.00546059897169,0.519334495068,0,0,0,0,4.42E-05,0.0253388032068,-0.00146237378598,-0.000142624832124,-0.000424720295129,-7.16E-05,0.025381367711091
1.63583903843879E+018,0.128019968,-1.92138278484,0.00546059897169,0.519334495068,0,0,0,0,4.42E-05,0.0253388032068,-0.00146237378598,-0.000142624832124,-0.000424720295129,-7.16E-05,0.025381367711091
1.63583903844285E+018,0.132080128,-1.92138278484,0.00546059897169,0.519334495068,0,0,0,0,4.42E-05,0.0253388032068,-0.00146237378598,-0.000142624832124,-0.000424720295129,-7.16E-05,0.025381367711091
1.63583903844691E+018,0.136140032,-1.92138278484,0.00546059897169,0.519334495068,0.001525818741906,-0.333495049520767,-0.007136388895993,0.333574885481756,4.42E-05,0.0253388032068,-0.00146237378598,-0.000142624832124,-0.000424720295129,-7.16E-05,0.025381367711091
1.63583903845066E+018,0.139890176,-1.9213770628,0.0042099445127,0.519307732582,0,0,0,0,6.28E-05,0.028835892889,-0.00143393628734,-0.000135442172242,-0.000479340313479,-0.00233640610629,0.028871841585948
1.63583903845476E+018,0.143990272,-1.9213770628,0.0042099445127,0.519307732582,0,0,0,0,6.28E-05,0.028835892889,-0.00143393628734,-0.000135442172242,-0.000479340313479,-0.00233640610629,0.028871841585948
1.63583903845878E+018,0.148009984,-1.9213770628,0.0042099445127,0.519307732582,0,0,0,0,6.28E-05,0.028835892889,-0.00143393628734,-0.000135442172242,-0.000479340313479,-0.00233640610629,0.028871841585948
1.63583903846294E+018,0.152169984,-1.9213770628,0.0042099445127,0.519307732582,0,0,0,0,6.28E-05,0.028835892889,-0.00143393628734,-0.000135442172242,-0.000479340313479,-0.00233640610629,0.028871841585948
1.6358390384668E+018,0.156030208,-1.9213770628,0.0042099445127,0.519307732582,0,0,0,0,6.28E-05,0.028835892889,-0.00143393628734,-0.000135442172242,-0.000479340313479,-0.00233640610629,0.028871841585948
1.63583903847085E+018,0.160079872,-1.9213770628,0.0042099445127,0.519307732582,0,0,0,0,6.28E-05,0.028835892889,-0.00143393628734,-0.000135442172242,-0.000479340313479,-0.00233640610629,0.028871841585948
1.63583903847492E+018,0.164150016,-1.9213770628,0.0042099445127,0.519307732582,0,0,0,0,6.28E-05,0.028835892889,-0.00143393628734,-0.000135442172242,-0.000479340313479,-0.00233640610629,0.028871841585948
1.63583903847884E+018,0.168069888,-1.9213770628,0.0042099445127,0.519307732582,0,0,0,0,6.28E-05,0.028835892889,-0.00143393628734,-0.000135442172242,-0.000479340313479,-0.00233640610629,0.028871841585948
1.63583903848283E+018,0.17206016,-1.9213770628,0.0042099445127,0.519307732582,0,0,0,0,6.28E-05,0.028835892889,-0.00143393628734,-0.000135442172242,-0.000479340313479,-0.00233640610629,0.028871841585948
1.63583903848679E+018,0.176020224,-1.9213770628,0.0042099445127,0.519307732582,0,0,0,0,6.28E-05,0.028835892889,-0.00143393628734,-0.000135442172242,-0.000479340313479,-0.00233640610629,0.028871841585948
1.63583903849084E+018,0.180070144,-1.9213770628,0.0042099445127,0.519307732582,0.000680360460852,-0.321703967719714,-0.007040235466828,0.321781712737676,6.28E-05,0.028835892889,-0.00143393628734,-0.000135442172242,-0.000479340313479,-0.00233640610629,0.028871841585948
1.63583903849487E+018,0.184100096,-1.92137432098,0.00291349296458,0.519279360771,-0.000304893644024,-0.02743597688476,-0.001311034740648,0.027468975223813,5.87E-05,0.0261623473399,-0.00117265636053,8.66E-06,-0.000206865012974,-0.000767819051641,0.026188616157196
1.63583903849878E+018,0.188009984,-1.92137551308,0.00280622136779,0.519274234772,0,0,0,0,-4.53E-05,0.0266855139906,-0.000942590255099,1.54E-05,-5.01E-05,-0.00104759062923,0.026702160427578
1.63583903850292E+018,0.192150016,-1.92137551308,0.00280622136779,0.519274234772,0,0,0,0,-4.53E-05,0.0266855139906,-0.000942590255099,1.54E-05,-5.01E-05,-0.00104759062923,0.026702160427578
1.63583903850681E+018,0.196040192,-1.92137551308,0.00280622136779,0.519274234772,0,0,0,0,-4.53E-05,0.0266855139906,-0.000942590255099,1.54E-05,-5.01E-05,-0.00104759062923,0.026702160427578
1.63583903851086E+018,0.200090112,-1.92137551308,0.00280622136779,0.519274234772,0,0,0,0,-4.53E-05,0.0266855139906,-0.000942590255099,1.54E-05,-5.01E-05,-0.00104759062923,0.026702160427578
1.63583903851483E+018,0.20406016,-1.92137551308,0.00280622136779,0.519274234772,0,0,0,0,-4.53E-05,0.0266855139906,-0.000942590255099,1.54E-05,-5.01E-05,-0.00104759062923,0.026702160427578
1.63583903851894E+018,0.208169984,-1.92137551308,0.00280622136779,0.519274234772,0,0,0,0,-4.53E-05,0.0266855139906,-0.000942590255099,1.54E-05,-5.01E-05,-0.00104759062923,0.026702160427578
1.63583903852286E+018,0.212089856,-1.92137551308,0.00280622136779,0.519274234772,0,0,0,0,-4.53E-05,0.0266855139906,-0.000942590255099,1.54E-05,-5.01E-05,-0.00104759062923,0.026702160427578
1.63583903852687E+018,0.216100096,-1.92137551308,0.00280622136779,0.519274234772,0,0,0,0,-4.53E-05,0.0266855139906,-0.000942590255099,1.54E-05,-5.01E-05,-0.00104759062923,0.026702160427578
1.63583903853085E+018,0.220079872,-1.92137551308,0.00280622136779,0.519274234772,0,0,0,0,-4.53E-05,0.0266855139906,-0.000942590255099,1.54E-05,-5.01E-05,-0.00104759062923,0.026702160427578
1.63583903853476E+018,0.223990272,-1.92137551308,0.00280622136779,0.519274234772,0,0,0,0,-4.53E-05,0.0266855139906,-0.000942590255099,1.54E-05,-5.01E-05,-0.00104759062923,0.026702160427578
1.63583903853887E+018,0.228100096,-1.92137551308,0.00280622136779,0.519274234772,-0.000426848543993,-0.25672850571423,-0.007637540256893,0.256842441716934,-4.53E-05,0.0266855139906,-0.000942590255099,1.54E-05,-5.01E-05,-0.00104759062923,0.026702160427578
1.63583903854278E+018,0.232009984,-1.92137718201,0.00180244166404,0.519244372845,0,0,0,0,2.31E-05,0.0233736850254,-0.000694291684554,-0.000126521210153,8.50E-05,0.00102677763014,0.023384336642857
1.6358390385468E+018,0.236030208,-1.92137718201,0.00180244166404,0.519244372845,0,0,0,0,2.31E-05,0.0233736850254,-0.000694291684554,-0.000126521210153,8.50E-05,0.00102677763014,0.023384336642857
1.63583903855087E+018,0.24009984,-1.92137718201,0.00180244166404,0.519244372845,0,0,0,0,2.31E-05,0.0233736850254,-0.000694291684554,-0.000126521210153,8.50E-05,0.00102677763014,0.023384336642857
1.63583903855483E+018,0.24406016,-1.92137718201,0.00180244166404,0.519244372845,0,0,0,0,2.31E-05,0.0233736850254,-0.000694291684554,-0.000126521210153,8.50E-05,0.00102677763014,0.023384336642857
1.63583903855896E+018,0.248189952,-1.92137718201,0.00180244166404,0.519244372845,0,0,0,0,2.31E-05,0.0233736850254,-0.000694291684554,-0.000126521210153,8.50E-05,0.00102677763014,0.023384336642857
1.63583903856297E+018,0.252199936,-1.92137718201,0.00180244166404,0.519244372845,0,0,0,0,2.31E-05,0.0233736850254,-0.000694291684554,-0.000126521210153,8.50E-05,0.00102677763014,0.023384336642857
1.63583903856685E+018,0.256080128,-1.92137718201,0.00180244166404,0.519244372845,0,0,0,0,2.31E-05,0.0233736850254,-0.000694291684554,-0.000126521210153,8.50E-05,0.00102677763014,0.023384336642857
1.63583903857085E+018,0.260079872,-1.92137718201,0.00180244166404,0.519244372845,0,0,0,0,2.31E-05,0.0233736850254,-0.000694291684554,-0.000126521210153,8.50E-05,0.00102677763014,0.023384336642857
1.63583903857495E+018,0.264179968,-1.92137718201,0.00180244166404,0.519244372845,0,0,0,0,2.31E-05,0.0233736850254,-0.000694291684554,-0.000126521210153,8.50E-05,0.00102677763014,0.023384336642857
1.63583903857886E+018,0.268090112,-1.92137718201,0.00180244166404,0.519244372845,0,0,0,0,2.31E-05,0.0233736850254,-0.000694291684554,-0.000126521210153,8.50E-05,0.00102677763014,0.023384336642857
1.63583903858291E+018,0.272140032,-1.92137718201,0.00180244166404,0.519244372845,-0.003684664663546,-0.301965303749057,-0.014336137760589,0.302327878747286,2.31E-05,0.0233736850254,-0.000694291684554,-0.000126521210153,8.50E-05,0.00102677763014,0.023384336642857
1.63583903858676E+018,0.275990016,-1.92139136791,0.000639880076051,0.519189178944,0,0,0,0,5.90E-05,0.0246379757419,-0.000256781362621,-0.000117231231996,0.00040976317579,0.000488482023966,0.02463959270135
1.63583903859077E+018,0.28,-1.92139136791,0.000639880076051,0.519189178944,0,0,0,0,5.90E-05,0.0246379757419,-0.000256781362621,-0.000117231231996,0.00040976317579,0.000488482023966,0.02463959270135
1.6358390385948E+018,0.284030208,-1.92139136791,0.000639880076051,0.519189178944,0,0,0,0,5.90E-05,0.0246379757419,-0.000256781362621,-0.000117231231996,0.00040976317579,0.000488482023966,0.02463959270135
1.63583903859874E+018,0.287970048,-1.92139136791,0.000639880076051,0.519189178944,0,0,0,0,5.90E-05,0.0246379757419,-0.000256781362621,-0.000117231231996,0.00040976317579,0.000488482023966,0.02463959270135
1.63583903860277E+018,0.292000256,-1.92139136791,0.000639880076051,0.519189178944,0,0,0,0,5.90E-05,0.0246379757419,-0.000256781362621,-0.000117231231996,0.00040976317579,0.000488482023966,0.02463959270135
1.63583903860682E+018,0.296050176,-1.92139136791,0.000639880076051,0.519189178944,0,0,0,0,5.90E-05,0.0246379757419,-0.000256781362621,-0.000117231231996,0.00040976317579,0.000488482023966,0.02463959270135
1.63583903861082E+018,0.300050176,-1.92139136791,0.000639880076051,0.519189178944,0,0,0,0,5.90E-05,0.0246379757419,-0.000256781362621,-0.000117231231996,0.00040976317579,0.000488482023966,0.02463959270135
1.63583903861488E+018,0.30411008,-1.92139136791,0.000639880076051,0.519189178944,0,0,0,0,5.90E-05,0.0246379757419,-0.000256781362621,-0.000117231231996,0.00040976317579,0.000488482023966,0.02463959270135
1.63583903861893E+018,0.308160256,-1.92139136791,0.000639880076051,0.519189178944,0,0,0,0,5.90E-05,0.0246379757419,-0.000256781362621,-0.000117231231996,0.00040976317579,0.000488482023966,0.02463959270135
1.63583903862275E+018,0.311980288,-1.92139136791,0.000639880076051,0.519189178944,0,0,0,0,5.90E-05,0.0246379757419,-0.000256781362621,-0.000117231231996,0.00040976317579,0.000488482023966,0.02463959270135
1.63583903862678E+018,0.31601024,-1.92139136791,0.000639880076051,0.519189178944,-0.00415952105742,-0.289149645592768,-0.01441186107245,0.289538461868923,5.90E-05,0.0246379757419,-0.000256781362621,-0.000117231231996,0.00040976317579,0.000488482023966,0.02463959270135
1.63583903863085E+018,0.320079872,-1.92140829563,-0.000536852574442,0.519130527973,6.00508173145017E-05,-0.027029010848792,-0.001140958727605,0.027053148067884,5.98E-05,0.0284131156987,-0.000480874875983,-0.000119807570582,0.000284242431368,-0.00156143121733,0.028417437220975
1.63583903863482E+018,0.324050176,-1.92140805721,-0.000644165964331,0.51912599802,0,0,0,0,4.90E-05,0.0285282287179,-0.000554569618857,-0.000122935951064,0.000121870787903,-0.00151049559646,0.028533883270439
1.63583903863875E+018,0.327980032,-1.92140805721,-0.000644165964331,0.51912599802,0,0,0,0,4.90E-05,0.0285282287179,-0.000554569618857,-0.000122935951064,0.000121870787903,-0.00151049559646,0.028533883270439
1.6358390386428E+018,0.332029952,-1.92140805721,-0.000644165964331,0.51912599802,0,0,0,0,4.90E-05,0.0285282287179,-0.000554569618857,-0.000122935951064,0.000121870787903,-0.00151049559646,0.028533883270439
1.63583903864675E+018,0.335980032,-1.92140805721,-0.000644165964331,0.51912599802,0,0,0,0,4.90E-05,0.0285282287179,-0.000554569618857,-0.000122935951064,0.000121870787903,-0.00151049559646,0.028533883270439
1.63583903865081E+018,0.340039936,-1.92140805721,-0.000644165964331,0.51912599802,0,0,0,0,4.90E-05,0.0285282287179,-0.000554569618857,-0.000122935951064,0.000121870787903,-0.00151049559646,0.028533883270439
1.63583903865471E+018,0.343940096,-1.92140805721,-0.000644165964331,0.51912599802,0,0,0,0,4.90E-05,0.0285282287179,-0.000554569618857,-0.000122935951064,0.000121870787903,-0.00151049559646,0.028533883270439
1.6358390386588E+018,0.348029952,-1.92140805721,-0.000644165964331,0.51912599802,0,0,0,0,4.90E-05,0.0285282287179,-0.000554569618857,-0.000122935951064,0.000121870787903,-0.00151049559646,0.028533883270439
1.63583903866273E+018,0.351960064,-1.92140805721,-0.000644165964331,0.51912599802,0,0,0,0,4.90E-05,0.0285282287179,-0.000554569618857,-0.000122935951064,0.000121870787903,-0.00151049559646,0.028533883270439
1.63583903866678E+018,0.35601024,-1.92140805721,-0.000644165964331,0.51912599802,0,0,0,0,4.90E-05,0.0285282287179,-0.000554569618857,-0.000122935951064,0.000121870787903,-0.00151049559646,0.028533883270439
1.63583903867078E+018,0.360009984,-1.92140805721,-0.000644165964331,0.51912599802,0,0,0,0,4.90E-05,0.0285282287179,-0.000554569618857,-0.000122935951064,0.000121870787903,-0.00151049559646,0.028533883270439
1.63583903867469E+018,0.363920128,-1.92140805721,-0.000644165964331,0.51912599802,-0.002437094571745,-0.259247410179896,-0.011055014355007,0.259494455542549,4.90E-05,0.0285282287179,-0.000554569618857,-0.000122935951064,0.000121870787903,-0.00151049559646,0.028533883270439
1.63583903867875E+018,0.367980032,-1.92141795158,-0.00169668556191,0.519081115723,0,0,0,0,1.52E-05,0.026141240574,-0.000766532054376,-0.000123724328773,-3.27E-05,-0.000887089179085,0.026152769219485
1.6358390386828E+018,0.372029952,-1.92141795158,-0.00169668556191,0.519081115723,0,0,0,0,1.52E-05,0.026141240574,-0.000766532054376,-0.000123724328773,-3.27E-05,-0.000887089179085,0.026152769219485
1.63583903868686E+018,0.376090112,-1.92141795158,-0.00169668556191,0.519081115723,0,0,0,0,1.52E-05,0.026141240574,-0.000766532054376,-0.000123724328773,-3.27E-05,-0.000887089179085,0.026152769219485
