%time,field.header.stamp,field.major_axis,field.minor_axis,field.orientation,field.x,field.y,field.minor_axis_average
1.63093906248712E+018,1.63093906245785E+018,75.174446106,55.8936882019,-0.339591115713,401.32623291,239.755722046,57.668094635
1.6309390625041E+018,1.63093906248975E+018,82.715637207,49.9675254822,-0.454869657755,400.844146729,241.719818115,57.668094635
1.63093906254213E+018,1.63093906252481E+018,13.2452640533,9.96599578857,0.187735021114,430.357971191,235.468582153,57.668094635
1.63093906257112E+018,1.63093906255689E+018,0,0,0,0,0,57.668094635
1.63093906260435E+018,1.63093906258902E+018,224.177902222,182.403869629,0.211747273803,388.331817627,219.75088501,63.7484550476
1.63093906263873E+018,1.63093906262436E+018,111.832572937,67.6315917969,-0.557606101036,383.041625977,238.912857056,63.4506874084
1.63093906267177E+018,1.63093906265643E+018,76.2806930542,65.0282821655,-0.701024055481,389.338500977,244.762008667,63.9668998718
1.63093906270353E+018,1.63093906268819E+018,94.1633834839,61.8849983215,-0.0831823721528,400.364471436,235.638442993,64.2814407349
1.63093906273292E+018,1.63093906271861E+018,77.3802719116,55.7458953857,-0.0923689454794,386.241638184,246.620727539,63.8849601746
1.63093906276499E+018,1.63093906275065E+018,76.9733810425,48.9510345459,0.360377639532,403.805267334,245.724472046,63.8849601746
1.63093906279901E+018,1.630939062783E+018,79.9596176147,58.3461418152,0.399652451277,402.561004639,249.869674683,63.7831115723
1.6309390628335E+018,1.63093906281923E+018,78.411315918,53.3398666382,0.207252383232,404.249725342,243.433654785,63.6951141357
1.63093906287261E+018,1.6309390628576E+018,61.4514732361,47.9535903931,0.0944150537252,398.777526855,238.617950439,63.6951141357
1.63093906289975E+018,1.63093906288301E+018,61.1336593628,44.4009284973,0.0232066530734,401.480316162,241.208267212,63.6951141357
1.63093906293924E+018,1.63093906292495E+018,71.2899703979,50.8358535767,0.103511348367,397.911987305,240.218566895,63.3463439941
1.63093906297081E+018,1.63093906295691E+018,71.4654464722,57.0220718384,0.27773308754,400.666381836,241.311553955,63.5486946106
1.63093906300349E+018,1.63093906298886E+018,55.6658477783,43.4038238525,0.464618951082,396.381134033,240.185348511,63.5486946106
1.63093906303973E+018,1.6309390630252E+018,65.7939147949,51.8118858337,-0.502348005772,399.152404785,240.900772095,63.5298919678
1.63093906307114E+018,1.63093906305663E+018,56.6620254517,46.9129867554,0.13113924861,394.129364014,243.53338623,63.5298919678
1.63093906310401E+018,1.63093906308915E+018,68.5743484497,51.9196128845,-0.15177102387,391.533325195,240.054733276,63.3206977844
1.63093906313864E+018,1.63093906312514E+018,74.0627212524,56.8820343018,-0.315387636423,388.238128662,247.076293945,63.2339096069
1.63093906317169E+018,1.6309390631566E+018,78.7883071899,59.8445587158,-0.0105988485739,396.776092529,239.681503296,63.2412033081
1.63093906319745E+018,1.63093906318243E+018,60.5438957214,48.4533691406,-0.183564901352,398.731536865,241.320556641,63.2412033081
1.63093906323929E+018,1.63093906322442E+018,77.656867981,65.7911682129,0.307358086109,399.181915283,247.566375732,63.7842559814
1.63093906327014E+018,1.6309390632564E+018,57.4648170471,50.9145431519,-1.56857168674,393.714355469,247.049957275,63.6045684814
1.63093906330324E+018,1.63093906328837E+018,71.4886627197,53.0270004272,0.23108035326,397.157562256,243.144454956,63.2653388977
1.63093906333937E+018,1.63093906332438E+018,80.268196106,46.9263534546,0.141027823091,398.034790039,244.432098389,63.2653388977
1.63093906336946E+018,1.63093906335107E+018,76.1418991089,52.954826355,-0.015673501417,402.802093506,242.344558716,62.7780075073
1.63093906339826E+018,1.63093906338306E+018,66.7567825317,51.1745605469,0.194436460733,404.141296387,243.710296631,62.7215080261
1.63093906343332E+018,1.63093906341852E+018,0,0,0,0,0,62.7215080261
1.63093906346381E+018,1.6309390634505E+018,0,0,0,0,0,62.7215080261
1.63093906349589E+018,1.63093906348252E+018,103.202133179,68.9312973022,-0.121803537011,423.321685791,235.529449463,63.5691871643
1.63093906353359E+018,1.63093906351893E+018,105.660820007,64.389289856,0.1836065799,425.953979492,240.972793579,63.9939689636
1.63093906356644E+018,1.63093906355135E+018,82.4644775391,68.6296539307,-0.98842805624,402.920715332,235.517929077,58.3052558899
1.63093906359743E+018,1.63093906358306E+018,93.3367080688,62.5087890625,-0.349479705095,415.202178955,240.112930298,58.049118042
1.6309390636395E+018,1.63093906362492E+018,95.8492889404,59.5813751221,-0.402888327837,413.473876953,239.31439209,57.7767715454
1.63093906367066E+018,1.63093906365672E+018,94.2065963745,49.695892334,-0.34683945775,407.96963501,237.941223145,57.7767715454
1.63093906370719E+018,1.63093906369292E+018,78.6271896362,56.4316520691,-0.49115395546,406.038146973,242.601379395,57.5041046143
1.63093906373327E+018,1.63093906371851E+018,82.7734603882,59.826084137,-0.270010709763,407.732269287,236.850997925,57.708114624
1.63093906376445E+018,1.63093906375094E+018,86.9297409058,55.9849014282,-0.325344145298,407.646514893,238.578125,57.5900497437
1.63093906380182E+018,1.63093906378692E+018,71.8790283203,47.2432899475,-0.466102927923,404.520141602,239.05557251,57.5900497437
1.63093906383886E+018,1.63093906382527E+018,73.5753860474,51.3817939758,0.0510846227407,397.96975708,237.307098389,57.492149353
1.63093906387207E+018,1.63093906385721E+018,53.1546134949,50.9193382263,-0.231601670384,398.795074463,245.350479126,57.4963226318
1.63093906390844E+018,1.63093906389289E+018,69.2505340576,47.2316322327,-0.317199528217,400.254821777,242.218215942,57.4963226318
1.63093906394489E+018,1.6309390639248E+018,74.1310882568,53.8939704895,-0.353704154491,407.100463867,243.255477905,57.3399162292
1.63093906397122E+018,1.63093906395686E+018,83.0207290649,59.5556411743,-0.389562815428,401.793273926,234.442611694,57.727104187
1.63093906401162E+018,1.63093906399358E+018,152.104766846,107.890571594,1.46313941479,404.962341309,254.896316528,60.5256538391
1.63093906404258E+018,1.63093906402576E+018,71.9743041992,52.3275299072,-0.349703550339,403.155822754,239.367416382,60.2979278564
1.63093906407267E+018,1.63093906405783E+018,61.4971199036,46.9541511536,-0.375096797943,400.563720703,240.657791138,60.2979278564
1.63093906410384E+018,1.6309390640884E+018,72.2485733032,49.3979568481,-0.537259101868,404.861846924,238.804519653,60.2979278564
1.63093906414858E+018,1.63093906411982E+018,62.0920257568,52.0666160583,-0.213006809354,403.01763916,242.320266724,59.9090309143
1.63093906417178E+018,1.63093906415773E+018,78.8676147461,56.2316856384,-0.654313445091,404.405029297,244.574249268,59.4310569763
1.63093906420887E+018,1.63093906419357E+018,76.946144104,53.2971725464,-0.423816382885,402.360046387,243.339859009,59.5501861572
1.63093906423928E+018,1.63093906422448E+018,67.5925292969,56.562789917,-0.329715311527,402.291107178,240.921554565,59.726978302
1.63093906427181E+018,1.63093906425653E+018,86.0271377563,63.1023635864,-0.193906083703,397.768951416,239.877426147,60.2343521118
1.63093906430761E+018,1.63093906429244E+018,82.7725601196,54.1915740967,-0.333711653948,400.372833252,241.079025269,60.3852043152
1.63093906433642E+018,1.63093906432125E+018,87.1076049805,50.3311920166,-0.307500302792,397.76550293,241.253295898,59.4552001953
1.63093906436521E+018,1.6309390643507E+018,0,0,0,0,0,59.4552001953
1.63093906440025E+018,1.63093906438657E+018,226.387084961,186.761520386,0.304970413446,386.523590088,215.40145874,65.5738143921
1.63093906443314E+018,1.63093906441851E+018,129.087173462,96.87525177,-0.476672738791,385.094177246,231.046844482,66.9860916138
1.63093906446604E+018,1.63093906445048E+018,82.1555786133,70.3711547852,-1.24331068993,392.602355957,241.803726196,67.3792114258
1.63093906450905E+018,1.63093906449387E+018,79.9167251587,59.6875076294,-0.15162961185,394.436126709,235.064453125,67.384513855
1.63093906453469E+018,1.63093906452E+018,89.1550445557,57.6162910461,0.00359966163523,392.694854736,241.348464966,67.4437484741
1.63093906457142E+018,1.63093906455728E+018,66.1107177734,52.9598617554,0.152691811323,392.721710205,245.83694458,67.1004333496
1.63093906460703E+018,1.63093906459268E+018,73.4952087402,52.8608398438,0.688465774059,402.580657959,250.266830444,66.9442367554
1.63093906464E+018,1.63093906462445E+018,67.7683258057,55.7594299316,-0.225105956197,398.874084473,245.690597534,67.1631164551
1.63093906466575E+018,1.63093906465115E+018,88.063659668,60.0104980469,0.0696778818965,404.713165283,241.344848633,67.6176757812
1.63093906470677E+018,1.63093906469311E+018,61.7190742493,60.1653862,1.00258588791,395.968048096,242.01071167,67.9312438965
1.63093906473883E+018,1.63093906472496E+018,62.3879585266,52.1004524231,-0.02726797387,404.198547363,240.495178223,67.5584869385
1.63093906477768E+018,1.63093906475675E+018,68.4427871704,54.0211372375,-0.350881874561,398.238250732,241.520370483,64.8650131226
1.63093906480974E+018,1.63093906479282E+018,49.7229385376,43.9511947632,0.121751733124,395.163909912,238.009887695,64.8650131226
1.63093906484366E+018,1.63093906482518E+018,65.7381668091,51.3000793457,-0.0866671204567,400.635162354,243.193069458,64.8136367798
1.63093906487857E+018,1.6309390648578E+018,63.2216644287,56.4545707703,0.280329525471,401.785888672,240.260467529,65.0330352783
1.63093906490861E+018,1.63093906489324E+018,79.5316925049,54.0684127808,0.234047651291,405.205322266,239.684188843,64.9248733521
1.63093906494419E+018,1.63093906492501E+018,51.9766349792,49.1790847778,-0.509598433971,399.267700195,237.285934448,64.9248733521
1.63093906497254E+018,1.63093906495727E+018,53.9690895081,45.2080574036,-0.127635329962,392.949981689,244.844451904,64.9248733521
1.63093906500807E+018,1.63093906499264E+018,74.5368652344,48.7093887329,0.107737116516,398.943603516,242.939102173,64.9248733521
1.63093906503951E+018,1.63093906502441E+018,71.8192596436,53.2300567627,0.307792454958,399.629821777,246.505065918,64.9215164185
1.63093906507164E+018,1.63093906505621E+018,80.270072937,61.1296043396,0.00547892134637,405.00479126,239.779998779,65.1498565674
1.63093906511227E+018,1.63093906509232E+018,67.0122909546,47.5644454956,0.561144173145,400.233703613,248.305725098,65.1498565674
1.63093906514043E+018,1.63093906511886E+018,59.2052268982,57.581401825,-0.620751440525,397.292724609,246.181396484,64.8738098145
1.63093906517186E+018,1.63093906515466E+018,76.1406173706,47.9819335938,0.204463392496,402.081878662,241.623764038,64.8738098145
1.63093906521226E+018,1.63093906519374E+018,104.982040405,54.4346466064,0.0172202661633,408.050567627,242.811325073,64.8859634399
1.63093906524025E+018,1.6309390652252E+018,75.2259597778,53.8856964111,-0.0476395562291,402.15411377,241.478530884,65.0636901855
1.6309390652696E+018,1.6309390652554E+018,79.5866851807,41.0327415466,0.315698832273,406.518890381,245.423873901,65.0636901855
1.63093906530096E+018,1.63093906528736E+018,0,0,0,0,0,65.0636901855
1.63093906533824E+018,1.63093906531943E+018,0,0,0,0,0,65.0636901855
1.63093906537081E+018,1.63093906535464E+018,111.760124207,74.0576477051,0.080379396677,426.670349121,235.596603394,59.4284973145
1.63093906540274E+018,1.63093906538746E+018,78.7405929565,58.181968689,-0.106042943895,409.290679932,235.686828613,57.4938316345
1.63093906544661E+018,1.630939065426E+018,71.2911911011,60.7463722229,-0.243571907282,407.615020752,238.515487671,57.0125923157
1.63093906548035E+018,1.63093906546113E+018,92.7518692017,63.8414649963,-0.554636478424,413.320648193,243.740020752,57.2202911377
1.63093906551045E+018,1.63093906549311E+018,93.8225097656,52.1159172058,-0.410104423761,411.497497559,239.141189575,56.9452705383
1.63093906553983E+018,1.63093906552486E+018,109.191291809,58.8758468628,-0.457816630602,404.979400635,242.361816406,57.2410697937
1.63093906557778E+018,1.63093906556192E+018,76.0072021484,53.2656974792,-0.283301472664,406.991363525,241.335205078,57.2613143921
1.63093906561097E+018,1.63093906559409E+018,72.9701004028,54.6109924316,-0.275520652533,404.935119629,238.116577148,57.2038917542
1.63093906564158E+018,1.63093906562568E+018,73.8988494873,50.9564933777,0.0349866114557,407.993988037,243.571563721,56.7511940002
1.63093906567623E+018,1.63093906566191E+018,82.1292877197,56.8311576843,-0.414996534586,403.800018311,236.752471924,56.5844802856
1.63093906571284E+018,1.63093906569277E+018,63.6562995911,45.4691200256,-0.234349519014,401.810760498,241.38243103,56.5844802856
1.63093906574043E+018,1.63093906572492E+018,87.516166687,53.91639328,-0.320681095123,402.551727295,237.976318359,56.67527771
1.63093906577573E+018,1.63093906576072E+018,79.94921875,48.5440063477,-0.261428803205,404.495178223,239.351837158,56.67527771
1.63093906580243E+018,1.63093906578659E+018,53.3303604126,48.3591651917,-0.171636343002,400.405334473,240.549682617,56.67527771
1.63093906584237E+018,1.63093906582571E+018,82.2677841187,70.0788421631,-0.631360113621,405.226593018,246.19480896,57.4781646729
1.63093906587688E+018,1.63093906586176E+018,59.3017425537,49.2555274963,-0.312388390303,402.620788574,239.873260498,57.4781646729
1.6309390659099E+018,1.63093906589352E+018,64.8157958984,47.1669502258,-0.278681576252,401.365661621,242.526199341,57.4781646729
1.63093906593425E+018,1.63093906591868E+018,68.7012863159,55.7152862549,-0.300609111786,405.298553467,241.524246216,57.6989250183
1.63093906597351E+018,1.63093906595458E+018,86.6416931152,53.3303337097,-0.35963767767,395.265106201,242.260192871,57.5427131653
1.63093906600868E+018,1.63093906598644E+018,115.743850708,73.5810317993,-0.703598976135,395.906402588,248.576248169,58.5183410645
1.6309390660367E+018,1.63093906602113E+018,68.1488723755,49.4968299866,-0.279534190893,403.947784424,242.669830322,58.5183410645
1.63093906607233E+018,1.63093906605732E+018,93.2790603638,62.0831260681,-0.24475222826,393.963287354,241.35534668,58.9609947205
1.63093906610246E+018,1.63093906608809E+018,105.478553772,67.8168106079,1.16338539124,404.297241211,249.456558228,59.2953567505
1.63093906613762E+018,1.63093906612127E+018,58.6494750977,46.1384925842,-0.350088238716,395.481079102,241.129959106,59.2953567505
1.63093906617764E+018,1.63093906616044E+018,71.2580413818,48.5668525696,-0.337615847588,393.73928833,243.731994629,59.2953567505
1.63093906620844E+018,1.63093906619256E+018,74.9693603516,47.9262924194,-0.328602254391,403.198272705,239.481277466,59.2953567505
1.63093906624281E+018,1.63093906622479E+018,51.602519989,27.4481830597,-0.181566730142,413.804656982,237.235076904,59.2953567505
1.63093906627738E+018,1.63093906626137E+018,0,0,0,0,0,59.2953567505
1.63093906630821E+018,1.63093906629325E+018,117.960670471,69.8807144165,-0.283521473408,390.741149902,243.7706604,59.910320282
1.63093906633915E+018,1.63093906632496E+018,113.789421082,63.9481773376,-0.661939203739,379.659851074,252.175216675,60.3859977722
1.63093906637991E+018,1.63093906636126E+018,98.2160644531,68.585723877,1.34639835358,396.318237305,256.425720215,61.1209983826
1.63093906641282E+018,1.63093906639086E+018,83.2273406982,62.6568260193,-0.0676067396998,385.095947266,241.576721191,60.5509605408
1.63093906644125E+018,1.63093906642504E+018,109.915588379,55.4578475952,0.121777966619,401.484283447,243.171310425,60.4147529602
1.63093906647698E+018,1.63093906646126E+018,62.6664276123,52.7560043335,0.536868751049,395.116149902,246.212722778,60.0152359009
1.63093906650813E+018,1.63093906648773E+018,71.9875030518,70.3781585693,-0.166690975428,398.153381348,247.769668579,60.3420677185
1.63093906653493E+018,1.63093906652082E+018,64.7237625122,51.6028747559,-0.102887369692,396.70401001,239.879623413,60.3164176941
1.63093906656843E+018,1.63093906655439E+018,77.8992614746,40.6216011047,0.0579613037407,391.557769775,240.088653564,60.3164176941
1.63093906661057E+018,1.63093906659362E+018,82.8796234131,53.2026367188,0.208125770092,405.997924805,247.423721313,60.0327568054
1.63093906664779E+018,1.63093906662869E+018,55.1147575378,49.9335670471,-0.161745086312,393.817565918,246.977584839,60.0327568054
1.63093906667556E+018,1.6309390666607E+018,67.8356170654,48.3059806824,0.0241428874433,403.205322266,242.621856689,60.0327568054
1.63093906671055E+018,1.6309390666936E+018,61.2998962402,50.3939437866,0.0135383121669,397.556854248,244.263778687,59.8891677856
1.63093906674599E+018,1.63093906672967E+018,86.0159454346,55.0950965881,-0.041726142168,409.811431885,239.993270874,59.9133758545
1.63093906677754E+018,1.63093906676147E+018,59.4819068909,53.8649520874,0.720060944557,398.866149902,248.006484985,60.058795929
1.63093906680868E+018,1.63093906679351E+018,85.5897827148,55.102016449,0.0379832014441,386.870361328,243.402893066,59.9723396301
1.63093906685119E+018,1.6309390668293E+018,75.7279281616,55.6377716064,0.00698627065867,399.961608887,239.48866272,60.0584106445
1.63093906688022E+018,1.63093906686132E+018,64.5336380005,53.7556915283,0.245647579432,395.635284424,245.924865723,59.2422523499
1.63093906691165E+018,1.63093906689393E+018,78.1822967529,62.8789329529,-0.158280849457,394.673034668,246.957519531,59.6004333496
1.63093906695135E+018,1.63093906692918E+018,61.7210540771,44.6064453125,0.136463433504,394.723724365,243.001571655,59.6004333496
1.6309390669761E+018,1.6309390669612E+018,86.1559143066,53.5409126282,-0.0633351653814,405.68157959,239.842193604,59.6109619141
1.63093906700839E+018,1.63093906699318E+018,62.4580879211,52.7247161865,-0.0245475545526,398.79675293,244.724304199,58.568145752
1.63093906704398E+018,1.63093906702883E+018,74.227432251,55.4536895752,0.0121211111546,397.101074219,245.438766479,58.2366752625
1.63093906707687E+018,1.63093906706159E+018,66.5546417236,48.4712982178,0.0783731043339,402.868713379,243.121398926,58.2366752625
1.63093906710971E+018,1.63093906708833E+018,70.1177597046,48.2220611572,0.38339599967,398.877166748,245.96963501,58.2366752625
1.63093906713942E+018,1.63093906712422E+018,70.0255584717,56.8793144226,-0.0307248886675,403.239837646,241.965255737,57.6898002625
1.63093906717695E+018,1.63093906716183E+018,57.9531707764,41.8192062378,-0.158638775349,400.873626709,241.581634521,57.6898002625
1.63093906720035E+018,1.63093906718693E+018,0,0,0,0,0,57.6898002625
1.63093906723846E+018,1.63093906722304E+018,0,0,0,0,0,57.6898002625
1.630939067277E+018,1.63093906726131E+018,114.935623169,74.4040908813,-0.0235809590667,427.897338867,236.531799316,57.9159698486
1.63093906731226E+018,1.63093906729338E+018,82.0334396362,72.7088623047,-0.0771685540676,412.418914795,238.913146973,58.3540039062
1.63093906733723E+018,1.63093906732294E+018,85.0805130005,58.3811340332,-0.100777208805,408.423217773,237.1980896,57.8437728882
1.63093906738446E+018,1.63093906735531E+018,90.3775405884,60.7790603638,-0.495817214251,409.468658447,238.988647461,57.7498855591
1.6309390674066E+018,1.63093906738768E+018,98.9804458618,58.6312103271,-0.613104879856,406.511657715,243.399978638,57.9085540771
1.63093906744494E+018,1.63093906742893E+018,81.2079238892,47.0524215698,-0.187343925238,405.561767578,238.095214844,57.9085540771
1.63093906747725E+018,1.63093906746141E+018,67.7927322388,54.1205596924,-0.323777139187,403.22467041,239.488723755,57.9767799377
1.63093906750797E+018,1.63093906749336E+018,71.7353668213,49.8080215454,-0.221238642931,403.804290771,242.327682495,57.9767799377
1.6309390675477E+018,1.6309390675294E+018,64.9058761597,58.4262161255,0.180247396231,403.481323242,246.715805054,57.3791847229
1.63093906757844E+018,1.63093906756158E+018,78.9195861816,55.2335395813,-0.46102681756,403.433135986,243.375732422,57.5607185364
1.63093906761023E+018,1.63093906759296E+018,80.6588821411,55.2288665771,-0.235212385654,402.149169922,239.110870361,57.6620292664
1.63093906764447E+018,1.63093906762979E+018,85.2287139893,59.0302505493,-0.23855252564,398.528686523,238.503707886,58.0938453674
1.63093906767421E+018,1.63093906765468E+018,80.1281738281,56.0901985168,-0.235084816813,403.603057861,241.870422363,58.1436004639
1.63093906770769E+018,1.63093906769279E+018,71.1180801392,60.0644607544,-0.557862222195,405.482849121,245.438140869,58.4535751343
