%time,time,field.X,field.Y,field.Z,field.A,field.B,field.C,%time,field.Vx,field.Vy,field.Vz,field.Speed
1.63888834383878E+018,0,1171.53234863,-1929.9230957,1230.25976562,0.00910000037402,-0.516399979591,179.278396606,1.63888834383878E+018,-0.103047825396,0.103047825396,-0.051523912698,0.154571726918
1.63888834384268E+018,0.00389632,1171.53234863,-1929.9230957,1230.25939941,0.00910000037402,-0.516399979591,179.278305054,1.63888834384269E+018,0,0,-0.096089437604,0.096089437604
1.63888834384662E+018,0.007833344,1171.53259277,-1929.92358398,1230.26000977,0.00910000037402,-0.516399979591,179.278305054,1.63888834384663E+018,0.0767437890172,-0.127906322479,0.153487578034,0.214028209448
1.6388883438517E+018,0.01292032,1171.53259277,-1929.92321777,1230.25976562,0.00910000037402,-0.516399979591,179.278305054,1.63888834385172E+018,0,0.100126616657,-0.0500633083284,0.111944958568
1.63888834385472E+018,0.015942144,1171.53259277,-1929.9230957,1230.25952148,0.00910000037402,-0.516399979591,179.278305054,1.63888834385474E+018,0,0.0249720402062,-0.0749161243439,0.0789685249329
1.6388883438586E+018,0.019821312,1171.53222656,-1929.92297363,1230.25939941,0.00910000037402,-0.516399979591,179.278396606,1.63888834385861E+018,-0.0999119579792,0.0249779894948,-0.0249779894948,0.105972632766
1.63888834386266E+018,0.023880704,1171.5324707,-1929.9230957,1230.25952148,0.00910000037402,-0.516399979591,179.278305054,1.63888834386268E+018,0.0763479918242,-0.0254493299872,0.0254493299872,0.0844058766961
1.63888834386665E+018,0.027868416,1171.53234863,-1929.92333984,1230.25952148,0.00910000037402,-0.516399979591,179.278305054,1.63888834386667E+018,-0.0491654425859,-0.0491654425859,0,0.0695304349065
1.63888834387058E+018,0.03179392,1171.5324707,-1929.92321777,1230.25976562,0.00899999961257,-0.516399979591,179.278396606,1.63888834387059E+018,0.0502402111888,0.0251201055944,0.0753603130579,0.0939908251166
1.63888834387464E+018,0.035860224,1171.53234863,-1929.92321777,1230.25952148,0.00910000037402,-0.516399979591,179.278305054,1.63888834387465E+018,-0.0506711453199,0,-0.0760067179799,0.0913487076759
1.63888834387866E+018,0.039876096,1171.53222656,-1929.92333984,1230.25976562,0.00910000037402,-0.516399979591,179.278305054,1.63888834387866E+018,-0.0247539188713,-0.0247539188713,0.0742617547512,0.0820994600654
1.63888834388265E+018,0.043868928,1171.53234863,-1929.9230957,1230.25964355,0.00910000037402,-0.516399979591,179.278305054,1.63888834388267E+018,0.0250451061875,0.0500902123749,-0.0500902123749,0.075135320425
1.63888834388679E+018,0.048005888,1171.53210449,-1929.92297363,1230.25976562,0.00910000037402,-0.516399979591,179.278396606,1.63888834388686E+018,-0.0499857477844,0.0249928738922,0.0499857477844,0.0749786198139
1.63888834389074E+018,0.051959552,1171.53259277,-1929.92321777,1230.25964355,0.00910000037402,-0.516399979591,179.278305054,1.63888834389075E+018,0.122504353523,-0.0490017421544,-0.0490017421544,0.14074678719
1.63888834389465E+018,0.055866624,1171.53283691,-1929.9230957,1230.25952148,0.00910000037402,-0.516399979591,179.278305054,1.63888834389467E+018,0.0499321892858,0.0249660946429,-0.0249660946429,0.0611541941762
1.63888834389865E+018,0.059864576,1171.53259277,-1929.92358398,1230.26000977,0.00899999961257,-0.516399979591,179.278305054,1.63888834389867E+018,-0.0513850413263,-0.128462597728,0.128462597728,0.188800692558
1.63888834390258E+018,0.06380032,1171.53222656,-1929.9230957,1230.25939941,0.00910000037402,-0.516399979591,179.278305054,1.63888834390261E+018,-0.0985793322325,0.123224161565,-0.147868990898,0.216257527471
1.63888834390657E+018,0.06778752,1171.53222656,-1929.92346191,1230.25952148,0.00910000037402,-0.516399979591,179.278305054,1.63888834390658E+018,0,-0.101661615074,0.0254154037684,0.104790389538
1.63888834391063E+018,0.071848192,1171.53234863,-1929.92321777,1230.25964355,0.00899999961257,-0.516399979591,179.278305054,1.63888834391068E+018,0.0252061542124,0.0756184607744,0.0252061542124,0.0835993513465
1.63888834391471E+018,0.075924224,1171.53271484,-1929.92346191,1230.25976562,0.00910000037402,-0.516399979591,179.278305054,1.63888834391473E+018,0.0980664938688,-0.0735498741269,0.0490332469344,0.132026061416
1.63888834391883E+018,0.080049408,1171.53283691,-1929.92333984,1230.26000977,0.00910000037402,-0.516399979591,179.278305054,1.63888834391883E+018,0.0247232764959,0.0494465529919,0.0494465529919,0.0741698294878
1.63888834392271E+018,0.083930368,1171.53271484,-1929.9230957,1230.25952148,0.00910000037402,-0.516399979591,179.278305054,1.63888834392272E+018,-0.0247948914766,0.0495897829533,-0.123974464834,0.135807216167
1.63888834392671E+018,0.087923456,1171.53259277,-1929.92321777,1230.25976562,0.00910000037402,-0.516399979591,179.278305054,1.63888834392673E+018,-0.025254720822,-0.025254720822,0.0757641643286,0.083760432899
1.63888834393061E+018,0.09183104,1171.5324707,-1929.92333984,1230.2598877,0.00910000037402,-0.516399979591,179.278305054,1.63888834393062E+018,-0.0248507168144,-0.0248507168144,0.0248507168144,0.043042704463
1.63888834393462E+018,0.0958336,1171.53259277,-1929.9230957,1230.25952148,0.00910000037402,-0.516399979591,179.278305054,1.63888834393463E+018,0.0256125070155,0.0512250140309,-0.102450028062,0.117371246219
1.63888834393871E+018,0.09993088,1171.5324707,-1929.9230957,1230.25976562,0.00910000037402,-0.516399979591,179.278305054,1.63888834393871E+018,-0.0247978251427,0,0.0743934735656,0.0784176066518
1.63888834394265E+018,0.103871744,1171.5324707,-1929.92321777,1230.25976562,0.00910000037402,-0.516399979591,179.278305054,1.63888834394268E+018,0,-0.0246072392911,0,0.0246072392911
1.63888834394681E+018,0.108022528,1171.53234863,-1929.92333984,1230.26013184,0.00910000037402,-0.516399979591,179.278305054,1.63888834394682E+018,-0.0507477782667,-0.0253738891333,0.0761216729879,0.0949404016137
1.63888834395235E+018,0.11356416,1171.53210449,-1929.9230957,1230.25952148,0.00910000037402,-0.516399979591,179.278305054,1.63888834395241E+018,-0.0489702746272,0.0489702746272,-0.146910816431,0.162416025996
1.63888834395473E+018,0.115944704,1171.53222656,-1929.92333984,1230.25964355,0.00910000037402,-0.516399979591,179.278305054,1.63888834395473E+018,0.0249349270016,-0.0498698540032,0.0249349270016,0.0610778480768
1.63888834395872E+018,0.11994112,1171.5324707,-1929.92346191,1230.26000977,0.00910000037402,-0.516399979591,179.278305054,1.63888834395873E+018,0.0765058174729,-0.0510038807988,0.102007761598,0.137332141399
1.63888834396268E+018,0.123892992,1171.5324707,-1929.92285156,1230.25939941,0.00910000037402,-0.516399979591,179.278396606,1.63888834396269E+018,0,0.148558586836,-0.148558586836,0.210093557835
1.63888834396665E+018,0.12787072,1171.53234863,-1929.92333984,1230.2598877,0.00910000037402,-0.516399979591,179.278305054,1.63888834396668E+018,-0.0502372011542,-0.100474402308,0.125593006611,0.168500691652
1.63888834397062E+018,0.13183488,1171.53259277,-1929.92346191,1230.26000977,0.00910000037402,-0.516399979591,179.278305054,1.63888834397063E+018,0.0753603130579,-0.0502402111888,0.0251201055944,0.0939908251166
1.63888834397471E+018,0.135929088,1171.5324707,-1929.92321777,1230.25952148,0.00910000037402,-0.516399979591,179.278305054,1.63888834397473E+018,-0.0251683406532,0.0755050256848,-0.125841706991,0.148897916079
1.63888834397868E+018,0.139900672,1171.53222656,-1929.92321777,1230.25964355,0.00910000037402,-0.516399979591,179.278305054,1.63888834397869E+018,-0.0740389078856,0,0.0246796347201,0.0780438557267
1.63888834398266E+018,0.143877888,1171.53271484,-1929.9230957,1230.25976562,0.00910000037402,-0.516399979591,179.278305054,1.63888834398267E+018,0.126136898994,0.0252273790538,0.0504547581077,0.138176038861
1.63888834398664E+018,0.147853056,1171.53222656,-1929.92346191,1230.25964355,0.00910000037402,-0.516399979591,179.278305054,1.63888834398666E+018,-0.125307843089,-0.100246272981,-0.0501231364906,0.168118104339
1.63888834399071E+018,0.15192704,1171.5324707,-1929.92285156,1230.25976562,0.00910000037402,-0.516399979591,179.278396606,1.63888834399072E+018,0.0747292563319,0.149458512664,0.0498195029795,0.174368262291
1.63888834399476E+018,0.155974144,1171.53234863,-1929.92321777,1230.2598877,0.00899999961257,-0.516399979591,179.278305054,1.63888834399478E+018,-0.0497308969498,-0.0745963454247,0.0248654484749,0.0930379927158
1.63888834399869E+018,0.15990528,1171.53271484,-1929.92297363,1230.25964355,0.00910000037402,-0.516399979591,179.278305054,1.6388883439987E+018,0.098405867815,0.0492029339075,-0.0738044008613,0.132482945919
1.6388883440027E+018,0.163913216,1171.5324707,-1929.9230957,1230.25964355,0.00910000037402,-0.516399979591,179.278305054,1.6388883440027E+018,-0.0509388372302,-0.0254694186151,0,0.0569513514638
1.6388883440067E+018,0.167913216,1171.53259277,-1929.92321777,1230.26000977,0.00910000037402,-0.516399979591,179.278305054,1.63888834400671E+018,0.0251607913524,-0.0251607913524,0.10064316541,0.106748200953
1.63888834401069E+018,0.171907328,1171.53210449,-1929.92333984,1230.25964355,0.00899999961257,-0.516399979591,179.278305054,1.63888834401074E+018,-0.123842686415,-0.0247685369104,-0.0990741476417,0.160518467426
1.63888834401463E+018,0.175842816,1171.53234863,-1929.9230957,1230.25964355,0.00910000037402,-0.516399979591,179.278305054,1.63888834401464E+018,0.0500722751021,0.0500722751021,0,0.0708128884435
1.63888834401868E+018,0.179894528,1171.53210449,-1929.92346191,1230.2598877,0.00910000037402,-0.516399979591,179.278305054,1.6388883440187E+018,-0.0509914793074,-0.101982958615,0.0764872133732,0.137298762798
1.63888834402266E+018,0.183879936,1171.53295898,-1929.92297363,1230.25939941,0.00910000037402,-0.516399979591,179.278396606,1.63888834402268E+018,0.222273662686,0.12348537147,-0.12348537147,0.282670915127
1.63888834402661E+018,0.187831296,1171.5324707,-1929.9230957,1230.25976562,0.00910000037402,-0.516399979591,179.278305054,1.63888834402663E+018,-0.125472784042,-0.0250945556909,0.100378222764,0.162631303072
1.63888834403071E+018,0.191923968,1171.53210449,-1929.92321777,1230.2598877,0.00910000037402,-0.516399979591,179.278305054,1.63888834403073E+018,-0.101024962962,-0.0252562407404,0.0252562407404,0.10715315491
1.63888834403473E+018,0.195946752,1171.53271484,-1929.92321777,1230.2598877,0.00910000037402,-0.516399979591,179.278305054,1.63888834403475E+018,0.147626116872,0,0,0.147626116872
1.6388883440387E+018,0.19991808,1171.53198242,-1929.9230957,1230.25964355,0.00910000037402,-0.516399979591,179.278305054,1.63888834403871E+018,-0.173308119178,0.0247583016753,-0.074274905026,0.19017213583
1.63888834404276E+018,0.20398208,1171.53210449,-1929.92321777,1230.25964355,0.00910000037402,-0.516399979591,179.278305054,1.63888834404277E+018,0.0253631491214,-0.0253631491214,0,0.03586890921
1.63888834404671E+018,0.20793216,1171.53222656,-1929.92333984,1230.25964355,0.00910000037402,-0.516399979591,179.278305054,1.63888834404673E+018,0.0246477294713,-0.0246477294713,0,0.0348571538925
1.63888834405064E+018,0.211860736,1171.53271484,-1929.9230957,1230.25952148,0.00910000037402,-0.516399979591,179.278305054,1.63888834405066E+018,0.124341987073,0.0497367940843,-0.0248683989048,0.136209830642
1.63888834405467E+018,0.215883776,1171.53234863,-1929.92333984,1230.26000977,0.00910000037402,-0.516399979591,179.278305054,1.63888834405468E+018,-0.102688312531,-0.0513441562653,0.128360390663,0.17221352458
1.63888834405868E+018,0.219892224,1171.53259277,-1929.92285156,1230.25964355,0.00910000037402,-0.516399979591,179.278396606,1.63888834405869E+018,0.0740214809775,0.09869530797,-0.09869530797,0.15798959136
1.63888834406263E+018,0.22385152,1171.53234863,-1929.92333984,1230.2598877,0.00910000037402,-0.516399979591,179.278305054,1.63888834406265E+018,-0.0752116665244,-0.100282222033,0.0752116665244,0.146185204387
1.63888834406675E+018,0.22797184,1171.53259277,-1929.92297363,1230.25976562,0.00910000037402,-0.516399979591,179.278305054,1.63888834406677E+018,0.0760940462351,0.0760940462351,-0.025364683941,0.110562093556
1.63888834407069E+018,0.2319104,1171.53271484,-1929.92333984,1230.26000977,0.00910000037402,-0.516399979591,179.278305054,1.63888834407071E+018,0.0243331436068,-0.072999432683,0.0486662872136,0.0910462886095
1.63888834407465E+018,0.235868416,1171.53283691,-1929.92321777,1230.2598877,0.00910000037402,-0.516399979591,179.278305054,1.63888834407467E+018,0.0253447573632,0.0253447573632,-0.0253447573632,0.0438984073699
1.63888834407865E+018,0.239872,1171.53210449,-1929.92346191,1230.2598877,0.00910000037402,-0.516399979591,179.278305054,1.63888834407867E+018,-0.176358282566,-0.0755821242929,0,0.191872105002
1.6388883440826E+018,0.24381568,1171.5324707,-1929.9230957,1230.2598877,0.00910000037402,-0.516399979591,179.278305054,1.63888834408262E+018,0.099763430655,0.099763430655,0,0.141086801887
1.6388883440866E+018,0.247814912,1171.53283691,-1929.9230957,1230.26000977,0.00910000037402,-0.516399979591,179.278305054,1.63888834408661E+018,0.0754145160317,0,0.0251381713897,0.0794938802719
1.63888834409075E+018,0.25196928,1171.53259277,-1929.9230957,1230.25976562,0.00910000037402,-0.516399979591,179.278396606,1.63888834409077E+018,-0.0503034777939,0,-0.0503034777939,0.071139857173
1.63888834409469E+018,0.255908864,1171.5324707,-1929.92321777,1230.25976562,0.00910000037402,-0.516399979591,179.278305054,1.63888834409469E+018,-0.0243274979293,-0.0243274979293,0,0.0344042778015
1.63888834409863E+018,0.259844352,1171.53283691,-1929.92321777,1230.25976562,0.00910000037402,-0.516399979591,179.278305054,1.63888834409943E+018,0.0764268189669,0,0,0.0764268189669
1.63888834410278E+018,0.264,1171.53283691,-1929.92321777,1230.25976562,0.00910000037402,-0.516399979591,179.278305054,1.63888834410281E+018,0,0,0,0
1.63888834410663E+018,0.267846912,1171.53234863,-1929.92297363,1230.25976562,0.00910000037402,-0.516399979591,179.278396606,1.63888834410664E+018,-0.12540525198,0.0501620993018,0,0.135065585375
1.63888834411059E+018,0.27181056,1171.53283691,-1929.92285156,1230.25976562,0.00910000037402,-0.516399979591,179.278305054,1.63888834411062E+018,0.127486437559,0.0254972893745,0,0.130011171103
1.63888834411467E+018,0.275890432,1171.53271484,-1929.92346191,1230.26013184,0.00910000037402,-0.516399979591,179.278305054,1.63888834411468E+018,-0.0252866949886,-0.151720166206,0.0758600831032,0.171502709389
1.63888834411864E+018,0.279858432,1171.53271484,-1929.92297363,1230.2598877,0.00910000037402,-0.516399979591,179.278305054,1.63888834411865E+018,0,0.123166263103,-0.0492665059865,0.132654130459
1.63888834412265E+018,0.283864832,1171.53234863,-1929.92297363,1230.25964355,0.00910000037402,-0.516399979591,179.278396606,1.63888834412265E+018,-0.100084803998,0,-0.0750636011362,0.125106006861
1.6388883441268E+018,0.288018176,1171.53234863,-1929.9230957,1230.26000977,0.00910000037402,-0.516399979591,179.278305054,1.63888834412685E+018,0,-0.0250885505229,0.100354202092,0.103442743421
1.63888834413062E+018,0.291832576,1171.53283691,-1929.92321777,1230.2598877,0.00910000037402,-0.516399979591,179.278305054,1.63888834413064E+018,0.120325431228,-0.0240650866181,-0.0240650866181,0.125045865774
1.63888834413464E+018,0.2958528,1171.53271484,-1929.9230957,1230.25976562,0.00910000037402,-0.516399979591,179.278305054,1.63888834413465E+018,-0.0259067565203,0.0259067565203,-0.0259067565203,0.0448718182743
1.63888834413866E+018,0.29987328,1171.53283691,-1929.92346191,1230.26000977,0.00910000037402,-0.516399979591,179.278305054,1.63888834413873E+018,0.0253447573632,-0.101379029453,0.0506895147264,0.116144269705
1.63888834414269E+018,0.303902464,1171.53259277,-1929.92333984,1230.26013184,0.00910000037402,-0.516399979591,179.278305054,1.63888834414271E+018,-0.0483409687877,0.0483409687877,0.0241704843938,0.0725114494562
1.63888834414666E+018,0.307879424,1171.5324707,-1929.92333984,1230.25976562,0.00899999961257,-0.516399979591,179.278305054,1.63888834414668E+018,-0.0254740603268,0,-0.0764221772552,0.080556049943
1.63888834415081E+018,0.312028928,1171.53234863,-1929.92346191,1230.26000977,0.00910000037402,-0.516399979591,179.278305054,1.63888834415083E+018,-0.0500902123749,-0.0500902123749,0.0500902123749,0.0867587924004
1.63888834415462E+018,0.31583872,1171.5324707,-1929.92321777,1230.2598877,0.00910000037402,-0.516399979591,179.278305054,1.63888834415463E+018,0.0482853166759,0.0724279731512,-0.024142658338,0.090333558619
1.63888834415867E+018,0.319886592,1171.53210449,-1929.92333984,1230.25976562,0.00899999961257,-0.516399979591,179.278305054,1.63888834415869E+018,-0.104290522635,-0.0260726306587,-0.0260726306587,0.110616803169
1.6388883441627E+018,0.32392192,1171.53271484,-1929.92321777,1230.25976562,0.00910000037402,-0.516399979591,179.278305054,1.63888834416271E+018,0.15010035038,0.0250167250633,0,0.152170792222
1.63888834416661E+018,0.32783104,1171.53222656,-1929.9230957,1230.25964355,0.00910000037402,-0.516399979591,179.278396606,1.63888834416663E+018,-0.122856006026,0.0245712008327,-0.0491424016654,0.134582012892
1.63888834417062E+018,0.331833088,1171.53222656,-1929.92333984,1230.26000977,0.00910000037402,-0.516399979591,179.278305054,1.63888834417063E+018,0,-0.0509666912258,0.101933382452,0.113964989781
1.63888834417468E+018,0.335898368,1171.53259277,-1929.92297363,1230.25964355,0.00910000037402,-0.516399979591,179.278396606,1.63888834417468E+018,0.100402250886,0.0753016844392,-0.100402250886,0.160722017288
1.63888834417864E+018,0.339852544,1171.5324707,-1929.92333984,1230.2598877,0.00910000037402,-0.516399979591,179.278305054,1.63888834417867E+018,-0.0245582535863,-0.0736747607589,0.0736747607589,0.107046939433
1.63888834418261E+018,0.3438272,1171.53222656,-1929.92321777,1230.25964355,0.00910000037402,-0.516399979591,179.278396606,1.63888834418267E+018,-0.0751218646765,0.0250406209379,-0.0751218646765,0.109149537981
1.63888834418666E+018,0.34787328,1171.53271484,-1929.9230957,1230.26000977,0.00910000037402,-0.516399979591,179.278305054,1.63888834418667E+018,0.126463964581,0.0252927932888,0.101171173155,0.163916036487
1.63888834419072E+018,0.351936768,1171.5324707,-1929.92346191,1230.26013184,0.00910000037402,-0.516399979591,179.278305054,1.63888834419075E+018,-0.0493854247034,-0.0987708494067,0.0246927123517,0.113156221807
1.63888834419465E+018,0.355864064,1171.53234863,-1929.92297363,1230.25964355,0.00910000037402,-0.516399979591,179.278396606,1.63888834419467E+018,-0.0495517030358,0.123879261315,-0.123879261315,0.182064592838
1.63888834419874E+018,0.359957248,1171.53222656,-1929.92346191,1230.2598877,0.00910000037402,-0.516399979591,179.278305054,1.63888834419874E+018,-0.0253202784806,-0.12660138309,0.075960829854,0.149796783924
1.63888834420264E+018,0.363858688,1171.5324707,-1929.9230957,1230.25976562,0.00899999961257,-0.516399979591,179.278396606,1.63888834420265E+018,0.0735842809081,0.0981123745441,-0.024528093636,0.125069230795
1.6388883442066E+018,0.367815424,1171.53283691,-1929.92346191,1230.26025391,0.00910000037402,-0.516399979591,179.278305054,1.63888834420662E+018,0.077087007463,-0.102782674134,0.128478348255,0.181695818901
1.63888834421061E+018,0.371831552,1171.53283691,-1929.9230957,1230.25964355,0.00910000037402,-0.516399979591,179.278305054,1.63888834421064E+018,0,0.100909516215,-0.176591649652,0.203389629722
1.63888834421464E+018,0.3758528,1171.53259277,-1929.92321777,1230.26000977,0.00910000037402,-0.516399979591,179.278305054,1.63888834421465E+018,-0.0490332469344,-0.0245166234672,0.0980664938688,0.112349286675
1.63888834421875E+018,0.379972096,1171.53283691,-1929.92321777,1230.2598877,0.00910000037402,-0.516399979591,179.278305054,1.63888834421892E+018,0.0503699295223,0,-0.0251849647611,0.0563152916729
1.63888834422269E+018,0.383911424,1171.53234863,-1929.92321777,1230.26000977,0.00910000037402,-0.516399979591,179.278305054,1.63888834422271E+018,-0.122197411954,0,0.0244394820184,0.124617397785
1.63888834422661E+018,0.387828992,1171.53295898,-1929.92285156,1230.26000977,0.00910000037402,-0.516399979591,179.278396606,1.63888834422663E+018,0.176719203591,0.075736798346,0,0.192264765501
